Raman shift / cm^-1,Counts
12.553,821.0
14.404,659.0
16.257,573.0
18.107,405.0
19.956,385.0
21.808,381.0
23.657,419.0
25.506,441.0
27.354,447.0
29.204,473.0
31.051,537.0
32.898,599.0
34.747,579.0
36.594,589.0
38.44,645.0
40.285,689.0
42.133,747.0
43.978,805.0
45.822,835.0
47.667,891.0
49.513,1035.0
51.356,1167.0
53.199,1335.0
55.042,1415.0
56.884,1543.0
58.729,1567.0
60.57,1593.0
62.412,1645.0
64.253,1617.0
66.093,1733.0
67.934,1833.0
69.773,1923.0
71.615,1915.0
73.454,1907.0
75.293,1851.0
77.131,1799.0
78.97,1821.0
80.807,1787.0
82.645,1753.0
84.482,1753.0
86.32,1733.0
88.157,1775.0
89.992,1759.0
91.828,1851.0
93.663,1803.0
95.498,1789.0
97.332,1765.0
99.167,1725.0
101.0,1843.0
102.834,1801.0
104.667,1921.0
106.499,1869.0
108.332,1909.0
110.164,1839.0
111.995,1903.0
113.827,1901.0
115.657,1987.0
117.488,2009.0
119.318,2087.0
121.148,2117.0
122.977,2041.0
124.806,1931.0
126.635,1823.0
128.463,1761.0
130.291,1673.0
132.119,1621.0
133.946,1553.0
135.771,1553.0
137.598,1563.0
139.424,1543.0
141.25,1497.0
143.075,1495.0
144.9,1407.0
146.725,1453.0
148.55,1505.0
150.374,1459.0
152.195,1423.0
154.019,1443.0
155.842,1463.0
157.664,1457.0
159.487,1491.0
161.309,1459.0
163.128,1541.0
164.949,1553.0
166.77,1633.0
168.591,1725.0
170.411,1829.0
172.228,1979.0
174.048,2251.0
175.867,2777.0
177.686,3201.0
179.502,3139.0
181.32,2877.0
183.138,2591.0
184.955,2347.0
186.77,2043.0
188.586,1857.0
190.403,1703.0
192.218,1567.0
194.032,1599.0
195.847,1567.0
197.662,1561.0
199.474,1597.0
201.288,1551.0
203.102,1633.0
204.913,1665.0
206.727,1583.0
208.539,1687.0
210.349,1725.0
212.161,1763.0
213.973,1781.0
215.782,1733.0
217.593,1791.0
219.402,1693.0
221.212,1743.0
223.022,1721.0
224.829,1679.0
226.638,1711.0
228.445,1703.0
230.254,1663.0
232.06,1699.0
233.867,1685.0
235.675,1729.0
237.48,1687.0
239.286,1661.0
241.091,1655.0
242.897,1663.0
244.7,1645.0
246.506,1725.0
248.308,1811.0
250.113,1827.0
251.915,1923.0
253.719,2015.0
255.521,1999.0
257.324,2023.0
259.124,1981.0
260.927,1903.0
262.727,1823.0
264.527,1775.0
266.328,1657.0
268.127,1675.0
269.928,1645.0
271.726,1583.0
273.526,1589.0
275.324,1547.0
277.121,1595.0
278.92,1575.0
280.717,1527.0
282.515,1547.0
284.311,1543.0
286.106,1523.0
287.904,1555.0
289.698,1571.0
291.493,1593.0
293.289,1599.0
295.083,1589.0
296.876,1581.0
298.671,1523.0
300.464,1601.0
302.257,1517.0
304.051,1539.0
305.842,1501.0
307.634,1447.0
309.425,1433.0
311.217,1437.0
313.008,1417.0
314.798,1385.0
316.587,1329.0
318.379,1343.0
320.167,1313.0
321.956,1309.0
323.744,1299.0
325.534,1241.0
327.322,1275.0
329.109,1267.0
330.896,1223.0
332.682,1271.0
334.47,1195.0
336.256,1235.0
338.042,1161.0
339.827,1201.0
341.612,1189.0
343.396,1217.0
345.18,1195.0
346.966,1195.0
348.749,1209.0
350.532,1213.0
352.315,1177.0
354.097,1229.0
355.879,1195.0
357.661,1231.0
359.442,1167.0
361.223,1213.0
363.004,1203.0
364.786,1213.0
366.566,1169.0
368.346,1229.0
370.125,1151.0
371.904,1163.0
373.682,1179.0
375.461,1191.0
377.238,1165.0
379.016,1135.0
380.793,1165.0
382.57,1205.0
384.346,1171.0
386.123,1191.0
387.898,1187.0
389.674,1153.0
391.449,1155.0
393.224,1173.0
394.998,1169.0
396.77,1163.0
398.544,1169.0
400.317,1185.0
402.09,1245.0
403.863,1185.0
405.636,1193.0
407.408,1231.0
409.179,1221.0
410.951,1215.0
412.722,1251.0
414.49,1213.0
416.261,1259.0
418.031,1269.0
419.8,1249.0
421.57,1267.0
423.339,1321.0
425.107,1281.0
426.874,1339.0
428.642,1321.0
430.409,1337.0
432.176,1403.0
433.943,1389.0
435.708,1461.0
437.474,1471.0
439.24,1511.0
441.006,1513.0
442.769,1587.0
444.534,1655.0
446.298,1631.0
448.062,1777.0
449.824,1827.0
451.588,1853.0
453.351,1931.0
455.114,1953.0
456.874,2035.0
458.637,2067.0
460.398,2099.0
462.158,2025.0
463.919,2035.0
465.68,1947.0
467.438,1869.0
469.198,1811.0
470.958,1757.0
472.716,1669.0
474.475,1605.0
476.232,1541.0
477.99,1525.0
479.748,1471.0
481.504,1463.0
483.261,1423.0
485.018,1411.0
486.773,1369.0
488.53,1363.0
490.284,1313.0
492.039,1359.0
493.793,1311.0
495.548,1317.0
497.301,1253.0
499.055,1279.0
500.807,1293.0
502.561,1277.0
504.314,1267.0
506.065,1311.0
507.818,1299.0
509.568,1305.0
511.318,1281.0
513.07,1265.0
514.82,1305.0
516.571,1323.0
518.319,1291.0
520.07,1333.0
521.818,1317.0
523.568,1383.0
525.315,1353.0
527.064,1345.0
528.811,1387.0
530.557,1395.0
532.305,1403.0
534.051,1371.0
535.798,1417.0
537.543,1385.0
539.288,1399.0
541.034,1381.0
542.778,1371.0
544.522,1401.0
546.267,1365.0
548.01,1399.0
549.753,1367.0
551.497,1385.0
553.239,1343.0
554.981,1347.0
556.724,1361.0
558.465,1321.0
560.206,1335.0
561.946,1297.0
563.688,1275.0
565.428,1343.0
567.167,1267.0
568.906,1269.0
570.647,1211.0
572.385,1295.0
574.124,1277.0
575.861,1299.0
577.601,1255.0
579.338,1275.0
581.074,1301.0
582.811,1361.0
584.547,1323.0
586.282,1313.0
588.02,1277.0
589.755,1349.0
591.49,1339.0
593.224,1333.0
594.958,1437.0
596.692,1411.0
598.427,1421.0
600.16,1519.0
601.893,1557.0
603.625,1585.0
605.357,1611.0
607.089,1629.0
608.821,1799.0
610.552,1779.0
612.282,1849.0
614.013,1887.0
615.743,1969.0
617.473,2027.0
619.202,2089.0
620.931,2059.0
622.66,2069.0
624.391,2133.0
626.119,2069.0
627.846,2025.0
629.574,1969.0
631.299,1893.0
633.026,1831.0
634.752,1749.0
636.478,1719.0
638.204,1695.0
639.93,1639.0
641.655,1573.0
643.38,1595.0
645.104,1585.0
646.828,1587.0
648.552,1541.0
650.276,1505.0
651.999,1523.0
653.722,1539.0
655.444,1485.0
657.165,1463.0
658.886,1519.0
660.608,1441.0
662.329,1457.0
664.05,1501.0
665.771,1431.0
667.491,1431.0
669.209,1413.0
670.929,1443.0
672.648,1439.0
674.367,1433.0
676.085,1405.0
677.802,1375.0
679.52,1325.0
681.237,1363.0
682.955,1323.0
684.67,1383.0
686.386,1261.0
688.103,1343.0
689.819,1291.0
691.532,1293.0
693.248,1273.0
694.963,1277.0
696.677,1275.0
698.39,1219.0
700.104,1217.0
701.818,1209.0
703.529,1203.0
705.242,1163.0
706.955,1215.0
708.665,1201.0
710.378,1161.0
712.089,1173.0
713.799,1149.0
715.51,1147.0
717.219,1121.0
718.929,1093.0
720.639,1129.0
722.347,1103.0
724.057,1093.0
725.764,1091.0
727.473,1075.0
729.182,1069.0
730.888,1057.0
732.596,1095.0
734.301,1105.0
736.009,1055.0
737.714,1067.0
739.42,1033.0
741.124,1045.0
742.83,1067.0
744.534,1049.0
746.239,1045.0
747.942,1035.0
749.647,1073.0
751.35,1057.0
753.054,1071.0
754.755,1055.0
756.459,1021.0
758.16,1081.0
759.861,1063.0
761.563,1045.0
763.263,1053.0
764.965,1037.0
766.664,1069.0
768.366,1059.0
770.064,1025.0
771.763,1077.0
773.463,1089.0
775.161,1051.0
776.859,1071.0
778.558,999.0
780.255,1045.0
781.951,1059.0
783.65,1075.0
785.346,1039.0
787.041,1019.0
788.739,1039.0
790.434,1037.0
792.128,1037.0
793.825,1033.0
795.519,1043.0
797.213,1021.0
798.906,1017.0
800.601,981.0
802.294,1007.0
803.986,1021.0
805.678,961.0
807.37,975.0
809.064,1005.0
810.755,1005.0
812.446,985.0
814.136,1013.0
815.827,979.0
817.518,1015.0
819.208,997.0
820.897,943.0
822.586,1005.0
824.275,939.0
825.963,965.0
827.653,959.0
829.341,927.0
831.028,973.0
832.715,955.0
834.402,983.0
836.089,957.0
837.775,937.0
839.46,919.0
841.146,955.0
842.831,931.0
844.516,917.0
846.201,941.0
847.887,937.0
849.571,955.0
851.254,937.0
852.937,917.0
854.62,905.0
856.303,923.0
857.985,939.0
859.667,947.0
861.349,947.0
863.03,921.0
864.709,985.0
866.39,961.0
868.071,961.0
869.751,985.0
871.43,941.0
873.11,935.0
874.789,945.0
876.468,939.0
878.147,973.0
879.825,919.0
881.503,919.0
883.18,955.0
884.856,931.0
886.533,885.0
888.209,933.0
889.886,905.0
891.562,929.0
893.237,923.0
894.911,901.0
896.586,939.0
898.261,917.0
899.935,931.0
901.609,937.0
903.281,927.0
904.955,905.0
906.628,915.0
908.301,897.0
909.973,923.0
911.643,903.0
913.315,923.0
914.987,867.0
916.656,903.0
918.328,887.0
919.998,883.0
921.669,895.0
923.337,873.0
925.006,837.0
926.676,909.0
928.343,887.0
930.012,879.0
931.68,899.0
933.347,873.0
935.015,823.0
936.682,853.0
938.348,847.0
940.014,877.0
941.679,859.0
943.346,899.0
945.012,867.0
946.675,865.0
948.341,871.0
950.004,889.0
951.669,875.0
953.331,871.0
954.995,887.0
956.657,885.0
958.321,873.0
959.984,869.0
961.645,895.0
963.308,891.0
964.968,863.0
966.63,817.0
968.29,871.0
969.949,833.0
971.61,891.0
973.269,907.0
974.93,879.0
976.588,867.0
978.248,885.0
979.905,881.0
981.564,883.0
983.221,863.0
984.878,871.0
986.536,895.0
988.192,879.0
989.85,901.0
991.505,905.0
993.16,891.0
994.817,851.0
996.472,907.0
998.126,893.0
999.782,905.0
1001.44,901.0
1003.09,895.0
1004.74,879.0
1006.4,905.0
1008.05,885.0
1009.7,857.0
1011.35,911.0
1013.01,933.0
1014.66,921.0
1016.31,925.0
1017.96,933.0
1019.61,899.0
1021.26,901.0
1022.91,903.0
1024.56,875.0
1026.21,883.0
1027.86,897.0
1029.51,929.0
1031.15,895.0
1032.8,923.0
1034.45,903.0
1036.1,905.0
1037.75,915.0
1039.39,921.0
1041.04,919.0
1042.68,909.0
1044.33,931.0
1045.98,901.0
1047.62,955.0
1049.27,907.0
1050.91,953.0
1052.56,929.0
1054.2,929.0
1055.84,941.0
1057.49,977.0
1059.13,987.0
1060.77,1015.0
1062.41,1059.0
1064.06,1101.0
1065.7,1097.0
1067.34,1159.0
1068.98,1153.0
1070.62,1253.0
1072.26,1257.0
1073.9,1201.0
1075.54,1205.0
1077.18,1103.0
1078.82,1045.0
1080.46,1005.0
1082.1,987.0
1083.74,1005.0
1085.37,945.0
1087.01,953.0
1088.65,967.0
1090.29,961.0
1091.92,945.0
1093.56,953.0
1095.19,951.0
1096.83,943.0
1098.46,945.0
1100.1,973.0
1101.73,961.0
1103.37,943.0
1105.0,937.0
1106.64,937.0
1108.27,929.0
1109.9,909.0
1111.54,907.0
1113.17,905.0
1114.8,889.0
1116.43,913.0
1118.06,899.0
1119.69,927.0
1121.33,887.0
1122.96,901.0
1124.59,901.0
1126.22,945.0
1127.85,945.0
1129.48,907.0
1131.1,879.0
1132.73,927.0
1134.36,887.0
1135.99,897.0
1137.62,907.0
1139.24,895.0
1140.87,905.0
1142.5,937.0
1144.13,917.0
1145.75,851.0
1147.38,873.0
1149.0,907.0
1150.63,905.0
1152.25,897.0
1153.88,903.0
1155.5,915.0
1157.12,923.0
1158.75,927.0
1160.37,899.0
1161.99,885.0
1163.62,919.0
1165.24,947.0
1166.86,911.0
1168.48,913.0
1170.11,925.0
1171.73,921.0
1173.35,889.0
1174.97,901.0
1176.59,909.0
1178.21,927.0
1179.83,937.0
1181.45,891.0
1183.06,915.0
1184.68,925.0
1186.3,929.0
1187.92,895.0
1189.54,919.0
1191.15,919.0
1192.77,929.0
1194.39,941.0
1196.0,941.0
1197.62,949.0
1199.24,911.0
1200.85,971.0
1202.47,977.0
1204.08,953.0
1205.7,941.0
1207.31,1013.0
1208.92,955.0
1210.54,987.0
1212.15,891.0
1213.77,965.0
1215.38,987.0
1216.99,951.0
1218.6,999.0
1220.21,959.0
1221.82,953.0
1223.44,995.0
1225.05,1011.0
1226.66,999.0
1228.27,999.0
1229.88,997.0
1231.49,1019.0
1233.1,987.0
1234.71,1035.0
1236.31,1003.0
1237.92,1011.0
1239.53,1007.0
1241.14,987.0
1242.74,1041.0
1244.35,999.0
1245.96,1003.0
1247.57,1015.0
1249.17,1045.0
1250.78,1019.0
1252.38,1069.0
1253.99,1057.0
1255.59,1033.0
1257.2,1079.0
1258.8,1075.0
1260.41,1117.0
1262.01,1099.0
1263.61,1109.0
1265.22,1057.0
1266.82,1115.0
1268.42,1165.0
1270.02,1127.0
1271.62,1187.0
1273.23,1167.0
1274.83,1185.0
1276.43,1191.0
1278.03,1175.0
1279.63,1227.0
1281.23,1221.0
1282.83,1211.0
1284.43,1215.0
1286.03,1235.0
1287.63,1235.0
1289.22,1231.0
1290.82,1283.0
1292.42,1221.0
1294.02,1249.0
1295.62,1253.0
1297.21,1225.0
1298.81,1283.0
1300.4,1291.0
1302.0,1263.0
1303.6,1251.0
1305.19,1287.0
1306.79,1313.0
1308.38,1297.0
1309.98,1273.0
1311.57,1271.0
1313.16,1315.0
1314.76,1297.0
1316.35,1289.0
1317.94,1293.0
1319.54,1321.0
1321.13,1329.0
1322.72,1319.0
1324.31,1289.0
1325.9,1299.0
1327.49,1287.0
1329.09,1265.0
1330.67,1247.0
1332.27,1269.0
1333.86,1281.0
1335.44,1251.0
1337.03,1245.0
1338.62,1257.0
1340.21,1257.0
1341.8,1261.0
1343.39,1197.0
1344.98,1243.0
1346.56,1207.0
1348.15,1221.0
1349.74,1291.0
1351.32,1235.0
1352.91,1241.0
1354.49,1219.0
1356.08,1191.0
1357.67,1171.0
1359.25,1191.0
1360.84,1147.0
1362.42,1153.0
1364.01,1119.0
1365.59,1119.0
1367.17,1157.0
1368.76,1067.0
1370.34,1093.0
1371.92,1093.0
1373.5,1103.0
1375.09,1069.0
1376.67,1069.0
1378.25,1029.0
1379.83,1081.0
1381.41,1041.0
1382.99,1025.0
1384.57,995.0
1386.15,985.0
1387.73,999.0
1389.31,985.0
1390.89,985.0
1392.47,957.0
1394.04,985.0
1395.62,985.0
1397.2,939.0
1398.78,947.0
1400.35,957.0
1401.93,947.0
1403.51,911.0
1405.08,939.0
1406.66,905.0
1408.24,949.0
1409.81,905.0
1411.39,891.0
1412.96,899.0
1414.54,883.0
1416.11,889.0
1417.68,905.0
1419.26,873.0
1420.83,875.0
1422.4,815.0
1423.97,857.0
1425.55,817.0
1427.12,839.0
1428.69,863.0
1430.26,851.0
1431.83,843.0
1433.4,849.0
1434.97,823.0
1436.54,809.0
1438.11,811.0
1439.68,821.0
1441.25,797.0
1442.82,789.0
1444.39,811.0
1445.96,769.0
1447.53,815.0
1449.09,807.0
1450.66,793.0
1452.23,809.0
1453.8,785.0
1455.36,793.0
1456.93,825.0
1458.49,777.0
1460.06,785.0
1461.63,765.0
1463.19,779.0
1464.76,799.0
1466.32,761.0
1467.89,759.0
1469.45,801.0
1471.01,781.0
1472.58,757.0
1474.14,751.0
1475.7,767.0
1477.26,765.0
1478.83,771.0
1480.39,735.0
1481.95,751.0
1483.51,773.0
1485.07,743.0
1486.63,755.0
1488.19,741.0
1489.75,745.0
1491.31,729.0
1492.87,713.0
1494.43,723.0
1495.99,747.0
1497.55,759.0
1499.11,737.0
1500.66,733.0
1502.22,745.0
1503.78,725.0
1505.34,737.0
1506.89,725.0
1508.45,729.0
1510.0,711.0
1511.56,757.0
1513.12,743.0
1514.67,745.0
1516.23,739.0
1517.78,723.0
1519.34,727.0
1520.89,735.0
1522.44,697.0
1524.0,719.0
1525.55,699.0
1527.1,743.0
1528.66,717.0
1530.21,723.0
1531.76,707.0
1533.31,713.0
1534.86,735.0
1536.42,685.0
1537.97,721.0
1539.52,711.0
1541.07,699.0
1542.62,707.0
1544.17,705.0
1545.72,689.0
1547.26,719.0
1548.81,723.0
1550.36,733.0
1551.91,689.0
1553.46,731.0
1555.01,725.0
1556.55,753.0
1558.1,739.0
1559.65,729.0
1561.19,721.0
1562.74,735.0
1564.29,733.0
1565.83,719.0
1567.38,715.0
1568.92,731.0
1570.46,683.0
1572.01,709.0
1573.55,697.0
1575.1,727.0
1576.64,715.0
1578.18,687.0
1579.73,673.0
1581.27,693.0
1582.81,681.0
1584.35,693.0
1585.9,691.0
1587.44,697.0
1588.98,721.0
1590.52,689.0
1592.06,693.0
1593.6,697.0
1595.14,705.0
1596.68,711.0
1598.22,673.0
1599.76,693.0
1601.3,675.0
1602.84,669.0
1604.37,679.0
1605.91,707.0
1607.45,665.0
1608.99,673.0
1610.52,671.0
1612.06,643.0
1613.6,705.0
1615.13,685.0
1616.67,663.0
1618.21,695.0
1619.74,685.0
1621.28,659.0
1622.81,671.0
1624.35,687.0
1625.88,667.0
1627.41,675.0
1628.95,675.0
1630.48,653.0
1632.01,637.0
1633.55,639.0
1635.08,665.0
1636.61,677.0
1638.14,665.0
1639.67,663.0
1641.21,659.0
1642.73,659.0
1644.27,665.0
1645.8,633.0
1647.33,709.0
1648.86,659.0
1650.39,695.0
1651.92,671.0
1653.44,657.0
1654.97,657.0
1656.5,655.0
1658.03,665.0
1659.56,667.0
1661.09,669.0
1662.61,661.0
1664.14,675.0
1665.67,617.0
1667.19,667.0
1668.72,641.0
1670.24,673.0
1671.77,675.0
1673.29,619.0
1674.82,663.0
1676.34,653.0
1677.87,633.0
1679.39,659.0
1680.92,687.0
1682.44,667.0
1683.96,661.0
1685.49,663.0
1687.01,637.0
1688.53,651.0
1690.05,657.0
1691.57,675.0
1693.1,633.0
1694.62,677.0
1696.14,719.0
1697.66,667.0
1699.18,623.0
1700.7,657.0
1702.22,661.0
1703.74,651.0
1705.26,643.0
1706.78,661.0
1708.3,651.0
1709.81,645.0
1711.33,673.0
1712.85,625.0
1714.37,655.0
1715.88,657.0
1717.4,633.0
1718.92,645.0
1720.43,657.0
1721.95,643.0
1723.47,699.0
1724.98,667.0
1726.5,643.0
